1	2	3	4	5	6	7	8	9	10	11	12	13
305	3	4	1	1	1.041	-0.3658	0.1653	0.06502	1.407	0.6756	0.2303	0.1003
305	3	4	1	2	-1.372	1.423	0.5032	0.267	-2.795	0.05054	0.5669	0.5725
305	3	4	1	3	-5.424	6.344	1.003	1.645	-11.77	0.9192	2.62	0.7486
305	3	4	1	4	-1.257	1.023	0.4312	0.1738	-2.28	-0.234	0.5553	0.3521
305	3	4	1	5	-4.909	5.333	0.8715	1.168	-10.24	0.4242	1.97	0.6051
305	3	4	1	6	-1.904	0.437	0.3945	0.1824	-2.341	-1.467	0.4621	0.4053
305	3	4	1	7	-2.163	3.969	0.3951	0.6474	-6.133	1.806	0.7317	0.7843
305	3	4	1	8	-2.115	0.2316	0.3562	0.1462	-2.346	-1.883	0.3776	0.3922
305	3	4	1	9	-1.999	3.231	0.4067	0.6382	-5.229	1.232	0.586	0.8956
305	3	4	1	10	-1.603	0.7826	0.3542	0.1462	-2.385	-0.8202	0.3157	0.4404
305	3	4	1	11	-2.572	1.494	0.3467	0.4039	-4.067	-1.078	0.5013	0.5615
305	3	4	1	12	-0.9521	0.5882	0.2916	0.1153	-1.54	-0.3639	0.3148	0.3123
305	3	4	1	13	-4.024	1.763	0.3165	0.5292	-5.786	-2.261	0.8074	0.3294
305	3	4	1	14	-1.992	0.7446	0.2711	0.2311	-2.737	-1.248	0.4163	0.2836
305	3	4	1	15	-2.59	2.452	0.3709	0.6845	-5.041	-0.1377	0.913	0.6152
305	3	4	1	16	-21.78	45.86	9.318	20.82	-67.64	24.08	30.08	11.67
305	3	4	2	1	1.014	-0.3111	0.1872	0.07363	1.325	0.7029	0.2608	0.1135
305	3	4	2	2	-1.28	1.385	0.4935	0.2815	-2.666	0.1048	0.5784	0.5577
305	3	4	2	3	-5.235	6.181	1.166	1.797	-11.42	0.946	2.934	0.758
305	3	4	2	4	-1.125	0.9906	0.428	0.1876	-2.116	-0.1344	0.5624	0.3471
305	3	4	2	5	-4.715	5.236	1.046	1.271	-9.951	0.5212	2.252	0.5897
305	3	4	2	6	-1.75	0.4578	0.4475	0.1808	-2.208	-1.292	0.5003	0.4643
305	3	4	2	7	-2.085	3.98	0.4316	0.6793	-6.065	1.895	0.8436	0.764
305	3	4	2	8	-2.024	0.2666	0.3825	0.1582	-2.29	-1.757	0.3848	0.4412
305	3	4	2	9	-1.98	3.27	0.406	0.6192	-5.25	1.29	0.5644	0.8821
305	3	4	2	10	-1.528	0.8172	0.3585	0.1588	-2.346	-0.7112	0.3204	0.4525
305	3	4	2	11	-2.505	1.537	0.3441	0.4066	-4.042	-0.9678	0.488	0.5739
305	3	4	2	12	-0.8216	0.6411	0.309	0.1613	-1.463	-0.1805	0.3159	0.3784
305	3	4	2	13	-3.965	1.75	0.3499	0.5343	-5.715	-2.215	0.8423	0.3259
305	3	4	2	14	-1.898	0.7498	0.2875	0.2272	-2.648	-1.148	0.4267	0.2941
305	3	4	2	15	-2.546	2.386	0.3637	0.7291	-4.932	-0.1599	0.956	0.6434
305	3	4	2	16	-20.98	44.24	9.601	21.57	-65.22	23.26	31.11	12.12
305	3	4	3	1	3.984e-13	-1.498e-13	3.764e-13	3.118e-13	5.483e-13	2.486e-13	6.614e-13	2.007e-13
305	3	4	3	2	-0.4107	0.2321	0.2848	0.4891	-0.6428	-0.1787	0.5007	0.6245
305	3	4	3	3	-10.66	20.44	1.711	5.073	-31.1	9.785	6.599	3.711
305	3	4	3	4	-0.8453	1.8	0.2104	0.2856	-2.646	0.9551	0.3326	0.3755
305	3	4	3	5	-14.96	22.67	7.288	12.93	-37.63	7.705	20.2	5.709
305	3	4	3	6	-1.873	1.924	0.2783	0.2116	-3.797	0.05021	0.3322	0.3662
305	3	4	3	7	-4.286	5.555	0.4588	1.689	-9.841	1.27	2.047	1.392
305	3	4	3	8	-2.205	0.1704	0.2002	0.1875	-2.375	-2.034	0.253	0.2941
305	3	4	3	9	-2.758	2.586	0.2944	0.8285	-5.344	-0.1718	0.9465	0.8064
305	3	4	3	10	-1.57	0.5219	0.1555	0.1414	-2.091	-1.048	0.2438	0.17
305	3	4	3	11	-1.352	1.544	0.2854	0.2346	-2.896	0.1921	0.3084	0.4218
305	3	4	3	12	-0.9527	1.175	0.1992	0.2477	-2.127	0.2221	0.1991	0.403
305	3	4	3	13	-2.546	3.278	0.2085	0.6574	-5.824	0.7314	0.7815	0.5836
305	3	4	3	14	-1.521	2.26	0.1852	0.8343	-3.781	0.7386	0.8478	0.8614
305	3	4	3	15	-1.483	2.256	0.3053	1.036	-3.739	0.7725	1.163	0.9901
305	3	4	3	16	0.1873	-0.07366	0.1954	0.07685	0.2609	0.1136	0.2722	0.1185
305	3	4	4	1	-0.03709	0.04293	3.973e-13	3.719e-13	-0.08002	0.005846	7.493e-13	1.762e-13
305	3	4	4	2	0.154	-0.2524	0.2683	0.2803	0.4064	-0.09834	0.3814	0.3945
305	3	4	4	3	9.981	-0.2654	3.866	1.226	10.25	9.716	5.068	2.687
305	3	4	4	4	-0.6591	2.061	0.4577	0.3639	-2.72	1.402	0.5095	0.6514
305	3	4	4	5	6.092	0.7093	2.776	0.8566	5.382	6.801	3.621	1.94
305	3	4	4	6	-0.9448	2.107	0.3612	0.5839	-3.052	1.162	0.597	0.7657
305	3	4	4	7	-1.951	3.801	0.4009	1.253	-5.752	1.85	1.491	1.114
305	3	4	4	8	-0.5041	0.5758	0.2895	0.2713	-1.08	0.07164	0.3165	0.4632
305	3	4	4	9	-0.7045	0.8337	0.3976	0.7694	-1.538	0.1292	0.9671	0.7517
305	3	4	4	10	-0.472	0.4908	0.237	0.3904	-0.9627	0.01882	0.3842	0.5192
305	3	4	4	11	-0.05922	0.7009	0.4318	0.4787	-0.7601	0.6417	0.6326	0.6565
305	3	4	4	12	0.978	1.164	0.7274	0.4848	-0.1859	2.142	0.4536	1.15
305	3	4	4	13	-0.7184	0.4117	0.3104	0.3443	-1.13	-0.3067	0.5078	0.4145
305	3	4	4	14	0.57	1.628	0.414	0.5969	-1.059	2.198	0.443	0.9268
305	3	4	4	15	1.278	0.5974	0.2623	0.5685	0.6809	1.876	0.5931	0.6574
305	3	4	4	16	0.4642	-0.1826	0.1997	0.07856	0.6468	0.2816	0.2783	0.1211
305	3	4	5	1	1.392	3.223	0.5108	0.634	-1.831	4.615	0.3166	1.107
305	3	4	5	2	-3.077	-1.044	0.6908	0.5654	-2.033	-4.121	1.095	0.6274
305	3	4	5	3	0.007891	0.02101	0.01673	0.00742	-0.01312	0.0289	0.02227	0.01319
305	3	4	5	4	-2.024	2.567	0.5318	0.4372	-4.591	0.543	0.7434	0.6287
305	3	4	5	5	-0.3745	4.73	0.877	4.556	-5.104	4.355	5.206	3.994
305	3	4	5	6	-4.78	-0.1055	0.6573	0.4562	-4.675	-4.886	0.8692	0.7243
305	3	4	5	7	-3.548	-3.916	0.5599	0.552	0.3676	-7.464	0.6823	0.878
305	3	4	5	8	0.3612	1.642	40.72	57.76	-1.281	2.003	98.48	17.04
305	3	4	5	9	-5.585	-6.812	1.516	1.131	1.227	-12.4	1.362	2.303
305	3	4	5	10	58.48	-21.81	0.8305	0.4003	80.29	36.68	1.143	0.6275
305	3	4	5	11	-4.404	-1.907	1.241	0.9725	-2.497	-6.311	1.986	1.015
305	3	4	5	12	-0.7526	0.6052	0.8792	0.496	-1.358	-0.1474	1.166	0.8238
305	3	4	5	13	-4.292	0.1122	0.8865	0.8704	-4.405	-4.18	1.503	0.9094
305	3	4	5	14	3.028	-1.19	2.288	0.8917	4.218	1.838	3.179	1.396
305	3	4	5	15	-1.811	0.4582	0.2606	0.3357	-2.27	-1.353	0.4983	0.3362
305	3	4	5	16	-96.49-1.993i	37.56+2.8i	30.13	34.51	-134.1-4.793i	-58.94+0.8065i	40.63	50.45
305	3	4	6	1	1.682	-1.14	0.8604	0.2281	2.822	0.5421	0.9085	0.8714
305	3	4	6	2	-2.137	-0.8231	0.4609	0.7438	-1.314	-2.96	0.7584	0.9778
305	3	4	6	3	-0.01478	0.001727	0.01171	0.01119	-0.0165	-0.01305	0.01633	0.01605
305	3	4	6	4	-1.03	-4.333	0.2293	1.597	3.303	-5.364	1.674	1.55
305	3	4	6	5	2.253	0.4011	1.424	6.209	1.852	2.654	5.814	6.882
305	3	4	6	6	-5.172	-1.796	1.051	0.8776	-3.376	-6.968	1.304	1.431
305	3	4	6	7	-2.716	-1.391	0.551	0.8109	-1.325	-4.107	0.8616	1.086
305	3	4	6	8	-52.39	14.68	8.069	3.147	-67.07	-37.71	11.22	4.923
305	3	4	6	9	-3.609	-2.814	1.344	1.156	-0.7946	-6.423	1.036	2.282
305	3	4	6	10	-23.45	8.144	5.491	2.141	-31.59	-15.3	7.631	3.35
305	3	4	6	11	-4.768	2.796	1.675	1.118	-7.564	-1.972	2.622	1.113
305	3	4	6	12	1.364	5.761	6.1	5.845	-4.397	7.125	6.435	10.07
305	3	4	6	13	-4.655	-0.4075	0.7071	1.666	-4.247	-5.062	1.895	1.72
305	3	4	6	14	-41.13	-1.375	5.534	5.534	-39.76	-42.51	10.56	3.32
305	3	4	6	15	-1.668	-1.804	0.2315	0.4218	0.1356	-3.472	0.4431	0.5163
305	3	4	6	16	6.673+1.371i	2.962-0.5392i	27.06	10.39	3.712+1.91i	9.635+0.8316i	24.4	32.94
305	3	4	7	1	-1.783	-2.312	2.612	5.77	0.5291	-4.096	3.315	8.321
305	3	4	7	2	-10.41	-6.944	2.61	2.107	-3.464	-17.35	1.147	4.603
305	3	4	7	3	-3.759	-45.18	5.061	28.03	41.43	-48.94	29.94	26.94
305	3	4	7	4	-7.15	-3.361	1.019	0.8399	-3.789	-10.51	1.083	1.521
305	3	4	7	5	-19.13	2.566	10.68	6.074	-21.7	-16.57	15.63	7.598
305	3	4	7	6	-4.219	0.2119	2.009	1.494	-4.43	-4.007	0.7791	3.454
305	3	4	7	7	-14.86	-18.97	4.492	6.317	4.111	-33.83	2.559	10.66
305	3	4	7	8	-4.414	-0.1318	0.9475	1.113	-4.282	-4.545	0.6951	1.947
305	3	4	7	9	-12.08	-17.15	3.125	5.764	5.077	-29.23	2.977	8.782
305	3	4	7	10	-5.139	-0.9833	1.11	0.5875	-4.155	-6.122	0.6946	1.635
305	3	4	7	11	-4.559	-7.828	1.935	4.346	3.268	-12.39	5.803	3.403
305	3	4	7	12	-0.6483	2.804	2.685	1.944	-3.452	2.156	2.222	4.128
305	3	4	7	13	-6.361	-4.252	1.714	1.971	-2.108	-10.61	1.157	3.508
305	3	4	7	14	-5.409	-3.355	2.64	4.883	-2.054	-8.764	7.33	2.812
305	3	4	7	15	-7.344	-4.922	1.922	1.762	-2.422	-12.27	0.6676	3.626
305	3	4	7	16	-8.459	-6.097	1.283	1.475	-2.362	-14.56	1.39	2.39
305	3	4	8	1	-1.175	-3.63	0.4984	0.7335	2.455	-4.805	0.8947	0.8788
305	3	4	8	2	-2.16	-2.555	0.8345	0.8347	0.3951	-4.714	0.8625	1.429
305	3	4	8	3	-43.21	-37.07	9.127	14.32	-6.14	-80.28	18.06	15.82
305	3	4	8	4	-3.176	-2.567	0.7015	0.9919	-0.6084	-5.743	0.7753	1.533
305	3	4	8	5	-93.46	13.06	17.48	8.866	-106.5	-80.4	24.37	13.21
305	3	4	8	6	-0.06063	-0.9495	1.439	0.2147	0.8888	-1.01	1.536	1.369
305	3	4	8	7	-6.849	-12.35	0.812	2.657	5.498	-19.2	2.166	3.277
305	3	4	8	8	-0.4967	-0.5353	1.198	0.2899	0.03866	-1.032	1.036	1.401
305	3	4	8	9	-6.401	-11.17	1.005	2.145	4.771	-17.57	1.549	2.971
305	3	4	8	10	-1.854	-1.466	0.7316	0.2815	-0.388	-3.32	0.9426	0.5836
305	3	4	8	11	-0.372	-4.427	0.5951	0.8414	4.055	-4.799	1.436	0.2464
305	3	4	8	12	1.544	0.5409	1.179	0.3309	1.003	2.085	0.9464	1.45
305	3	4	8	13	-1.684	-1.183	0.9417	0.2076	-0.5013	-2.867	0.8641	1.055
305	3	4	8	14	-0.4226	-1.128	0.5049	0.4236	0.7057	-1.551	0.8464	0.3902
305	3	4	8	15	-2.623	-1.931	0.4388	0.4071	-0.6918	-4.555	0.7703	0.3509
305	3	4	8	16	-1.633	-1.915	0.3177	0.6106	0.2822	-3.547	0.8013	0.5527
305	3	4	9	1	-0.02942	0.3401	0.6361	0.7185	-0.3695	0.3107	1.162	0.7013
305	3	4	9	2	-0.8928	-0.4307	0.2641	0.3233	-0.462	-1.323	0.3429	0.4806
305	3	4	9	3	-17.17	-1.606	17.27	12.15	-15.57	-18.78	26.96	12.86
305	3	4	9	4	0.02319	0.8444	0.1949	0.12	-0.8212	0.8676	0.1892	0.2626
305	3	4	9	5	-22.84	9.614	11.37	19.79	-32.45	-13.22	28.82	14.53
305	3	4	9	6	-0.9586	-0.3059	0.3785	0.2639	-0.6526	-1.265	0.289	0.5851
305	3	4	9	7	0.2201	0.2676	0.493	0.1285	-0.04747	0.4876	0.5692	0.4417
305	3	4	9	8	-1.242	-1.229	0.4559	0.3653	-0.01322	-2.471	0.4002	0.7228
305	3	4	9	9	-0.5969	-0.6269	0.3995	0.2782	0.03004	-1.224	0.5098	0.4626
305	3	4	9	10	-0.8256	-0.8099	0.3105	0.1674	-0.01567	-1.635	0.2416	0.4364
305	3	4	9	11	-1.253	-1.014	0.3268	0.2913	-0.2382	-2.267	0.433	0.4426
305	3	4	9	12	-0.9284	-0.9162	0.3365	0.19	-0.0122	-1.845	0.3526	0.4176
305	3	4	9	13	-1.987	-0.4859	0.357	0.2653	-1.501	-2.473	0.3969	0.488
305	3	4	9	14	-0.9379	-0.4486	0.2555	0.1575	-0.4893	-1.387	0.2152	0.3658
305	3	4	9	15	0.3993	1.142	0.3711	0.1674	-0.7427	1.541	0.303	0.4895
305	3	4	9	16	0.5522	1.641	0.2621	0.484	-1.088	2.193	0.3954	0.6706
305	3	4	10	1	-1.088	2.333	0.3971	0.6088	-3.422	1.245	0.8805	0.5305
305	3	4	10	2	-1.977	0.3424	0.2017	0.2102	-2.32	-1.635	0.2942	0.2885
305	3	4	10	3	-22.92	6.201	14.72	8.903	-29.12	-16.72	22.4	9.479
305	3	4	10	4	-1.617	1.336	0.1699	0.2178	-2.952	-0.281	0.1827	0.3453
305	3	4	10	5	2.453	-22.56	22.26	17.87	25.01	-20.11	39.09	10.11
305	3	4	10	6	-2.862	0.7573	0.2075	0.2123	-3.62	-2.105	0.2386	0.3454
305	3	4	10	7	-1.82	1.559	0.1737	0.1305	-3.378	-0.2611	0.1552	0.2652
305	3	4	10	8	-1.941	0.3482	0.1845	0.1712	-2.289	-1.593	0.2258	0.2752
305	3	4	10	9	-1.943	0.4339	0.2829	0.1702	-2.377	-1.509	0.2962	0.3611
305	3	4	10	10	-0.8949	0.9591	0.1895	0.1925	-1.854	0.06422	0.1876	0.3328
305	3	4	10	11	-2.181	-0.1933	0.3973	0.242	-1.988	-2.375	0.3686	0.5449
305	3	4	10	12	-0.4561	1.523	0.3156	0.2247	-1.979	1.067	0.2167	0.5032
305	3	4	10	13	-2.484	-0.3518	0.3316	0.2809	-2.132	-2.836	0.4115	0.4564
305	3	4	10	14	-1.145	0.7836	0.2869	0.2411	-1.929	-0.3616	0.2076	0.4877
305	3	4	10	15	-1.215	0.7584	0.3217	0.1488	-1.973	-0.4565	0.2522	0.4332
305	3	4	10	16	-0.2835	0.3081	0.4192	0.3659	-0.5916	0.02469	0.3254	0.7165
